,Date,Open,High,Low,Close,Adj Close,Volume
0,2019-09-09,363.0,368.0,363.0,368.0,360.524994,61257
1,2019-09-10,367.0,367.0,363.0,367.0,359.545319,83320
2,2019-09-11,370.0,371.0,364.299988,368.0,360.524994,62478
3,2019-09-12,367.0,372.600006,367.0,369.5,361.99453700000004,78089
4,2019-09-13,370.0,373.0,368.799988,372.0,364.443756,38081
5,2019-09-16,368.0,368.440002,364.0,365.5,358.075775,62176
6,2019-09-17,369.0,369.0,361.0,364.0,356.606262,112905
7,2019-09-18,367.0,367.0,362.23999,366.0,358.565643,103205
8,2019-09-19,367.0,367.0,361.799988,362.0,354.646881,63725
9,2019-09-20,363.0,363.0,360.0,360.0,352.6875,53966
10,2019-09-23,360.0,364.0,359.839996,360.0,352.6875,33951
11,2019-09-24,364.0,364.0,360.049988,364.0,356.606262,30055
12,2019-09-25,359.0,362.0,357.0,359.5,352.19766200000004,164114
13,2019-09-26,363.0,363.0,358.100006,359.0,351.707825,37856
14,2019-09-27,362.0,371.0,360.0,371.0,363.464081,88673
15,2019-09-30,365.0,365.100006,359.0,362.5,355.13671899999997,83598
16,2019-10-01,367.0,367.0,361.0,361.0,353.667206,50863
17,2019-10-02,366.0,366.0,359.0,360.0,352.6875,53210
18,2019-10-03,359.0,363.0,356.0,359.0,351.707825,82161
19,2019-10-04,360.0,360.27999900000003,357.0,357.0,349.748444,44020
20,2019-10-07,360.0,364.0,356.5,364.0,356.606262,112802
21,2019-10-08,359.0,367.065002,359.0,364.0,356.606262,96073
22,2019-10-09,368.0,368.0,361.0,361.0,353.667206,120220
23,2019-10-10,366.0,367.0,362.799988,365.0,357.585938,48365
24,2019-10-11,365.0,365.0,356.0,356.0,348.768768,98971
25,2019-10-14,357.0,363.0,356.0,363.0,355.626556,61982
26,2019-10-15,363.0,363.0,355.0,355.0,347.789063,101036
27,2019-10-16,359.0,361.0,354.0,361.0,353.667206,98997
28,2019-10-17,359.0,359.0,355.488007,359.0,351.707825,67437
29,2019-10-18,361.0,362.679993,356.0,359.0,351.707825,305152
30,2019-10-21,357.0,361.040009,353.0,356.0,348.768768,61338
31,2019-10-22,353.0,357.640015,353.0,355.0,347.789063,45264
32,2019-10-23,354.0,356.480011,354.0,356.0,348.768768,23084
33,2019-10-24,357.0,357.0,353.679993,357.0,349.748444,48663
34,2019-10-25,358.0,360.0,354.5,360.0,352.6875,108286
35,2019-10-28,357.0,364.200012,354.5,360.0,352.6875,29105
36,2019-10-29,365.0,365.0,360.079987,362.0,354.646881,64423
37,2019-10-30,360.0,363.385986,360.0,360.0,352.6875,67980
38,2019-10-31,366.0,366.0,361.0,362.0,354.646881,89590
39,2019-11-01,366.0,367.0,360.0,367.0,359.545319,75691
40,2019-11-04,370.0,370.0,363.880005,367.0,359.545319,85912
41,2019-11-05,367.0,370.0,365.380005,370.0,362.484375,185127
42,2019-11-06,371.0,372.0,368.899994,372.0,364.443756,79016
43,2019-11-07,372.0,375.899994,367.799988,373.0,365.423431,178833
44,2019-11-08,369.0,374.0,369.0,374.0,366.403137,118743
45,2019-11-11,367.0,369.22000099999997,364.320007,367.0,359.545319,164481
46,2019-11-12,370.0,370.0,365.0,368.0,360.524994,118844
47,2019-11-13,363.0,365.184998,362.22000099999997,364.0,356.606262,44295
48,2019-11-14,361.0,362.399994,359.329987,360.0,352.6875,46160
49,2019-11-15,360.0,363.200012,359.0,360.0,352.6875,57667
50,2019-11-18,361.0,362.253998,360.0,362.0,354.646881,66801
51,2019-11-19,364.0,366.0,362.0,363.0,355.626556,80079
52,2019-11-20,363.0,365.839996,360.0,360.0,352.6875,82094
53,2019-11-21,361.0,363.0,358.570007,361.5,354.15704300000004,81814
54,2019-11-22,358.0,364.0,358.0,361.5,354.15704300000004,53826
55,2019-11-25,363.0,364.98400899999996,361.0,362.0,354.646881,174226
56,2019-11-26,360.0,364.98400899999996,360.0,363.0,355.626556,149238
57,2019-11-27,365.0,365.190002,360.0,362.0,354.646881,217186
58,2019-11-28,363.0,363.0,360.0,361.0,353.667206,70104
59,2019-11-29,362.0,362.0,359.0,360.5,353.17733799999996,65709
60,2019-12-02,362.0,362.899994,360.0,362.0,354.646881,102542
61,2019-12-03,362.0,362.450012,352.440002,355.0,347.789063,151206
62,2019-12-04,355.0,357.0,351.460999,357.0,349.748444,146844
63,2019-12-05,357.0,358.0,354.0,357.0,349.748444,70285
64,2019-12-06,353.0,359.0,353.0,359.0,351.707825,68963
65,2019-12-09,360.0,361.0,356.0,361.0,353.667206,71713
66,2019-12-10,362.0,362.0,356.0,360.0,352.6875,98740
67,2019-12-11,362.0,363.0,358.0,362.0,354.646881,109937
68,2019-12-12,360.0,365.0,359.0,361.0,353.667206,160322
69,2019-12-13,363.0,366.0,360.410004,364.0,356.606262,267416
70,2019-12-16,365.0,365.0,361.0,362.0,354.646881,148035
71,2019-12-17,361.0,363.01001,360.0,362.0,354.646881,234385
72,2019-12-18,361.0,362.67199700000003,360.0,360.0,352.6875,276749
73,2019-12-19,361.0,364.0,360.0,360.0,352.6875,260377
74,2019-12-20,361.0,364.0,360.0,360.0,352.6875,1416603
75,2019-12-23,364.0,368.72699,361.0,366.0,358.565643,196929
76,2019-12-24,366.0,373.0,366.0,373.0,365.423431,36581
77,2019-12-27,375.0,376.548004,370.0,370.0,362.484375,107743
78,2019-12-30,371.0,374.649994,369.0,370.0,362.484375,79963
79,2019-12-31,370.0,373.649994,367.0,368.0,360.524994,117135
80,2020-01-02,370.0,373.0,370.0,371.0,363.464081,164907
81,2020-01-03,368.0,372.899994,367.87600699999996,370.5,362.97421299999996,231492
82,2020-01-06,368.0,370.174988,366.0,366.0,358.565643,86129
83,2020-01-07,367.0,370.5,367.0,370.0,362.484375,205813
84,2020-01-08,370.0,373.37399300000004,368.0,368.0,360.524994,157266
85,2020-01-09,376.0,376.0,372.0,375.5,367.87265,81396
86,2020-01-10,372.0,376.666992,372.0,374.0,366.403137,93075
87,2020-01-13,376.0,386.0,373.320007,386.0,378.159393,152067
88,2020-01-14,385.0,385.0,381.68798799999996,385.0,377.179688,99039
89,2020-01-15,385.0,386.0,380.0,382.0,374.240631,55590
90,2020-01-16,386.0,387.01901200000003,382.265015,385.0,377.179688,173234
91,2020-01-17,386.0,387.319,382.72000099999997,387.0,379.139069,76419
92,2020-01-20,387.0,388.488007,382.0,386.0,378.159393,178394
93,2020-01-21,382.0,382.0,375.181,376.0,368.362518,166756
94,2020-01-22,379.0,379.200012,374.0,374.0,366.403137,158679
95,2020-01-23,374.0,375.692993,368.0,371.0,363.464081,123189
96,2020-01-24,368.0,371.0,367.0,371.0,363.464081,195845
97,2020-01-27,365.0,366.399994,355.0,360.0,352.6875,361466
98,2020-01-28,360.0,365.0,355.399994,364.0,356.606262,93824
99,2020-01-29,365.0,368.583008,363.0,368.0,360.524994,94629
100,2020-01-30,362.0,364.549988,350.0,350.0,342.890625,195372
101,2020-01-31,350.0,355.25,347.0,350.0,342.890625,70149
102,2020-02-03,351.0,359.0,347.299988,355.0,347.789063,56926
103,2020-02-04,365.0,370.799988,362.75,367.0,359.545319,78763
104,2020-02-05,368.0,375.0,366.160004,371.0,363.464081,127802
105,2020-02-06,372.0,374.0,371.0,372.5,364.93359399999997,83046
106,2020-02-07,370.0,373.399994,366.0,369.5,361.99453700000004,86189
107,2020-02-10,369.0,369.0,366.0,367.5,360.03515600000003,67162
108,2020-02-11,370.0,375.0,370.0,373.0,365.423431,125048
109,2020-02-12,374.0,379.785004,366.480011,376.0,368.362518,61526
110,2020-02-13,376.0,376.0,371.0,373.5,365.9133,195063
111,2020-02-14,376.0,376.0,372.679993,374.5,366.892975,64626
112,2020-02-17,376.0,378.0,374.86499,375.0,367.382813,126939
113,2020-02-18,375.0,375.0,370.113007,373.0,365.423431,162679
114,2020-02-19,372.0,376.0,372.0,376.0,368.362518,57681
115,2020-02-20,375.0,378.0,370.0,374.0,366.403137,106016
116,2020-02-21,370.0,373.480011,365.0,366.0,358.565643,128292
117,2020-02-24,360.0,364.799988,350.0,352.0,344.850006,355201
118,2020-02-25,354.0,356.5,349.0,349.0,341.91095,150501
119,2020-02-26,350.0,353.0,342.375,353.0,345.829681,211022
120,2020-02-27,349.0,349.320007,340.0,340.0,333.09375,151247
121,2020-02-28,330.0,335.0,325.0,332.0,325.256256,249115
122,2020-03-02,340.0,345.959991,336.0,341.0,334.073456,339259
123,2020-03-03,346.0,349.0,342.440002,346.5,339.461731,94676
124,2020-03-04,348.0,354.510986,342.660004,348.0,340.931244,91886
125,2020-03-05,350.0,353.472992,345.0,348.0,340.931244,94158
126,2020-03-06,341.0,341.378998,333.25,339.0,332.114075,95451
127,2020-03-09,326.0,326.61801099999997,308.5,318.0,311.540619,198339
128,2020-03-10,323.0,329.0,321.0,323.5,316.928925,521697
129,2020-03-11,324.0,324.0,318.666992,323.0,316.439056,91409
130,2020-03-12,311.0,311.0,292.440002,299.0,292.926575,180066
131,2020-03-13,300.0,326.549988,296.480011,308.0,301.743744,192463
132,2020-03-16,298.0,299.733002,267.0,286.0,280.190643,282685
133,2020-03-17,292.0,292.542999,272.0,280.0,274.3125,221449
134,2020-03-18,274.0,275.0,248.0,248.0,242.96250899999998,242995
135,2020-03-19,245.0,251.602005,244.0,248.0,242.96250899999998,299203
136,2020-03-20,252.0,298.0,252.0,298.0,291.946869,412605
137,2020-03-23,287.0,295.0,272.0,279.0,273.332825,241591
138,2020-03-24,284.0,301.632996,283.0,296.0,289.987518,258517
139,2020-03-25,308.0,311.27999900000003,301.0,305.0,298.804688,275384
140,2020-03-26,306.0,312.0,300.429993,309.5,303.21328700000004,138078
141,2020-03-27,305.0,313.0,286.0,286.0,280.190643,226316
142,2020-03-30,289.0,312.843994,284.0,294.0,288.028137,165227
143,2020-03-31,287.0,312.843994,284.0,309.0,302.72345,326443
144,2020-04-01,306.0,306.0,297.0,306.0,299.784393,264823
145,2020-04-02,296.0,306.0,296.0,306.0,299.784393,136550
146,2020-04-03,306.0,306.0,299.25,306.0,299.784393,127521
147,2020-04-06,310.0,320.0,310.0,314.0,307.621887,149361
148,2020-04-07,322.0,327.0,321.27999900000003,327.0,320.357819,385822
149,2020-04-08,326.0,326.0,314.0,320.0,313.5,146455
150,2020-04-09,324.0,324.0,313.02999900000003,319.0,319.0,161450
151,2020-04-14,320.0,320.950012,316.34500099999997,320.0,320.0,138890
152,2020-04-15,319.0,321.899994,312.84899900000005,321.0,321.0,48996
153,2020-04-16,321.0,321.0,310.0,320.0,320.0,144585
154,2020-04-17,321.0,333.0,319.0,330.0,330.0,964272
155,2020-04-20,330.0,331.649994,323.673004,327.0,327.0,162787
156,2020-04-21,325.0,325.839996,318.0,321.5,321.5,44305
157,2020-04-22,326.0,327.0,319.0,327.0,327.0,74017
158,2020-04-23,318.0,326.369995,316.39898700000003,319.0,319.0,69700
159,2020-04-24,323.0,323.369995,314.0,323.0,323.0,93105
160,2020-04-27,326.0,326.369995,316.0,319.0,319.0,105829
161,2020-04-28,323.0,326.417999,318.0,323.0,323.0,118657
162,2020-04-29,325.0,327.0,318.945007,323.0,323.0,148153
163,2020-04-30,324.0,333.0,324.0,327.0,327.0,219001
164,2020-05-01,323.0,333.0,314.0,323.0,323.0,268563
165,2020-05-04,323.0,324.197998,318.700012,323.0,323.0,106052
166,2020-05-05,320.0,327.320007,320.0,322.0,322.0,91854
167,2020-05-06,328.0,329.0,321.0,329.0,329.0,67266
168,2020-05-07,324.0,333.0,324.0,333.0,333.0,120495
169,2020-05-11,329.0,336.600006,324.0,328.0,328.0,124497
170,2020-05-12,325.0,337.0,325.0,334.0,334.0,157711
171,2020-05-13,337.0,339.0,331.329987,338.0,338.0,104727
172,2020-05-14,335.0,335.0,325.440002,332.0,332.0,254925
173,2020-05-15,333.5,334.0,327.0,330.5,330.5,158981
174,2020-05-18,330.0,341.519989,330.0,340.0,340.0,100635
175,2020-05-19,343.0,346.0,340.0,346.0,346.0,109637
176,2020-05-20,345.0,348.0,341.77999900000003,348.0,348.0,96924
177,2020-05-21,349.0,349.820007,340.0,344.0,344.0,162748
178,2020-05-22,340.0,340.0,331.269989,340.0,340.0,109916
179,2020-05-26,340.0,349.75,339.524994,346.0,346.0,229227
180,2020-05-27,348.0,348.0,341.0,341.0,341.0,195870
181,2020-05-28,344.0,347.200012,340.0,343.0,343.0,137360
182,2020-05-29,342.0,346.040009,340.25201400000003,344.0,344.0,114875
183,2020-06-01,350.285004,350.285004,345.0,348.0,348.0,125642
184,2020-06-02,349.0,352.0,348.0,350.0,350.0,198669
185,2020-06-03,353.0,355.855011,352.070007,355.0,355.0,142242
186,2020-06-04,353.0,355.233002,347.742004,348.0,348.0,62961
187,2020-06-05,357.0,357.0,348.0,357.0,357.0,203806
188,2020-06-08,360.795013,361.285004,355.52999900000003,359.5,359.5,225726
189,2020-06-09,356.0,362.480011,353.0,353.0,353.0,128479
190,2020-06-10,353.0,357.0,352.0,354.0,354.0,186438
191,2020-06-11,351.0,351.0,342.0,347.5,347.5,226044
192,2020-06-12,349.0,349.040009,341.38198900000003,343.0,343.0,177775
193,2020-06-15,339.0,349.5,336.0,339.5,339.5,232995
194,2020-06-16,350.0,350.0,341.0,341.0,341.0,556361
195,2020-06-17,349.0,352.0,341.0,351.0,351.0,480792
196,2020-06-18,350.0,354.320007,348.0,351.0,351.0,343006
197,2020-06-19,355.0,359.00201400000003,353.0,359.0,359.0,245815
198,2020-06-22,357.0,360.60101299999997,354.56298799999996,358.0,358.0,175643
199,2020-06-23,360.0,368.14099100000004,359.0,362.0,362.0,151747
200,2020-06-24,359.0,362.786987,358.0,358.0,358.0,179551
201,2020-06-25,357.0,366.467987,357.0,365.0,365.0,275074
202,2020-06-26,367.0,369.429993,363.0,369.0,369.0,255663
203,2020-06-29,361.0,366.925995,361.0,365.0,365.0,240875
204,2020-06-30,369.0,370.666992,365.119995,367.0,367.0,123221
205,2020-07-01,365.0,370.153015,364.0,364.0,364.0,68556
206,2020-07-02,366.0,378.0,365.0,376.0,376.0,184959
207,2020-07-03,378.0,379.0,375.76001,379.0,379.0,94900
208,2020-07-06,381.0,390.0,381.0,389.0,389.0,201173
209,2020-07-07,385.0,388.5,384.506012,386.0,386.0,50993
210,2020-07-08,380.0,388.0,380.0,383.5,383.5,90351
211,2020-07-09,389.0,389.0,383.27301,388.0,388.0,91604
212,2020-07-10,384.0,390.0,381.869995,390.0,390.0,323136
213,2020-07-13,390.0,393.0,387.0,387.0,387.0,120235
214,2020-07-14,385.0,388.799988,380.0,381.0,381.0,55851
215,2020-07-15,382.0,386.0,382.0,384.5,384.5,199866
216,2020-07-16,378.0,381.359985,375.0,379.5,379.5,90642
217,2020-07-17,375.0,381.959991,375.0,379.0,379.0,157027
218,2020-07-20,380.0,383.940002,377.679993,379.5,379.5,152013
219,2020-07-21,383.0,384.27999900000003,378.0,378.0,378.0,178555
220,2020-07-22,381.0,383.0,378.0,382.0,382.0,189905
221,2020-07-23,379.0,386.174988,379.0,383.0,383.0,169924
222,2020-07-24,379.0,379.505005,376.0,378.5,378.5,54589
223,2020-07-27,382.0,382.0,377.0,377.0,377.0,88097
224,2020-07-28,377.0,386.192993,377.0,384.0,384.0,134519
225,2020-07-29,381.0,385.350006,381.0,385.0,385.0,207916
226,2020-07-30,384.0,387.27999900000003,374.0,374.0,374.0,174127
227,2020-07-31,373.0,380.0,373.0,373.0,373.0,67290
228,2020-08-03,373.0,380.549988,373.0,380.0,380.0,96861
229,2020-08-04,384.0,390.0,380.799988,388.0,388.0,77880
230,2020-08-05,386.0,391.160004,384.0,385.0,385.0,136748
231,2020-08-06,394.0,394.0,384.0,387.5,387.5,67355
232,2020-08-07,381.0,388.0,381.0,383.0,383.0,71194
233,2020-08-10,381.0,407.782013,381.0,388.0,388.0,151479
234,2020-08-11,389.0,394.0,387.320007,389.0,389.0,140427
235,2020-08-12,388.0,398.0,387.0,395.0,395.0,82272
236,2020-08-13,393.0,399.0,393.0,394.0,394.0,107020
237,2020-08-14,390.0,397.75,390.0,394.0,394.0,57450
238,2020-08-17,399.0,401.5,396.27999900000003,398.5,398.5,91168
239,2020-08-18,399.0,402.0,395.940002,396.5,396.5,53186
240,2020-08-19,392.0,401.0,392.0,398.0,398.0,103793
241,2020-08-20,392.0,400.0,392.0,393.0,393.0,80084
242,2020-08-21,393.0,396.519989,391.0,394.0,394.0,350980
243,2020-08-24,400.0,403.03799399999997,391.0,400.0,400.0,205283
244,2020-08-25,406.0,407.515015,402.0,405.0,405.0,201426
245,2020-08-26,407.0,409.0,405.0,409.0,409.0,128317
246,2020-08-27,407.0,410.0,405.0,410.0,410.0,145395
247,2020-08-28,407.0,410.0,398.174988,410.0,410.0,214455
248,2020-09-01,409.0,413.0,398.0,402.0,402.0,397637
249,2020-09-02,402.0,412.0,402.0,411.0,411.0,116209
250,2020-09-03,406.0,410.0,403.0,403.0,403.0,100221
251,2020-09-04,400.0,407.0,393.0,396.0,396.0,150230
252,2020-09-07,401.476898,403.799988,398.519989,401.0,401.0,50480
